# File: data/simulation/qe_R12992-100-05.dat
# Provinance: Konrad Bernlohr's CTA PROD-3 sim_telarray package (retrieved 2016-11-08)
# - URL: https://www.mpi-hd.mpg.de/hfm/CTA/MC/Software/corsika_simtelarray_2016-06-30.tar.gz
#   -> sim_telarray_config.tar.gz
#   -> sim_telarray/cfg/CTA/qe_R12992-100-05.dat
# Copyright notice: data/copyright/bernlohr_simtelarray_copyright.txt
# License: CC-BY-SA-4.0

# Quantum efficiency of 15 PMTs of Hamamatsu type R12992-100-05.
# Data from Oleg Kalekin, University Erlangen, Nov. 2014.
# Col. 1: wavelength [nm]
# Col. 2: average QE [0...1]
# Col. 3: r.m.s. of QE of 15 PMTs (not used by sim_telarray)
# Col. 4: min QE of 15 PMTs (not used by sim_telarray)
# Col. 5: max QE of 15 PMTs (not used by sim_telarray)

 200	0.0000	0.0000	0.0000	0.0000
 205	0.0000	0.0000	0.0000	0.0000
 210	0.0000	0.0000	0.0000	0.0000
 215	0.0000	0.0000	0.0000	0.0000
 220	0.0001	0.0003	0.0000	0.0010
 225	0.0003	0.0010	0.0000	0.0040
 230	0.0072	0.0056	0.0000	0.0160
 235	0.0193	0.0074	0.0050	0.0290
 240	0.0317	0.0113	0.0120	0.0460
 245	0.0471	0.0153	0.0230	0.0680
 250	0.0685	0.0194	0.0390	0.0960
 255	0.0950	0.0205	0.0620	0.1230
 260	0.1218	0.0199	0.0870	0.1460
 265	0.1471	0.0193	0.1140	0.1720
 270	0.1735	0.0169	0.1440	0.1940
 275	0.2109	0.0152	0.1840	0.2290
 280	0.2521	0.0135	0.2300	0.2690
 285	0.2899	0.0116	0.2740	0.3050
 290	0.3231	0.0110	0.3070	0.3380
 295	0.3483	0.0107	0.3300	0.3640
 300	0.3621	0.0104	0.3430	0.3780
 305	0.3717	0.0103	0.3520	0.3880
 310	0.3795	0.0100	0.3610	0.3950
 315	0.3845	0.0106	0.3650	0.4010
 320	0.3899	0.0105	0.3710	0.4060
 325	0.3994	0.0105	0.3800	0.4150
 330	0.4085	0.0109	0.3890	0.4250
 335	0.4145	0.0113	0.3940	0.4310
 340	0.4148	0.0109	0.3960	0.4310
 345	0.4123	0.0108	0.3930	0.4290
 350	0.4091	0.0110	0.3900	0.4260
 355	0.4070	0.0111	0.3880	0.4240
 360	0.4077	0.0111	0.3890	0.4250
 365	0.4127	0.0114	0.3930	0.4300
 370	0.4203	0.0117	0.4000	0.4380
 375	0.4277	0.0119	0.4070	0.4460
 380	0.4311	0.0122	0.4100	0.4500
 385	0.4317	0.0120	0.4100	0.4500
 390	0.4305	0.0122	0.4080	0.4490
 395	0.4257	0.0122	0.4030	0.4440
 400	0.4195	0.0120	0.3970	0.4370
 405	0.4133	0.0122	0.3910	0.4310
 410	0.4074	0.0121	0.3850	0.4250
 415	0.4026	0.0126	0.3780	0.4200
 420	0.3971	0.0124	0.3720	0.4140
 425	0.3915	0.0125	0.3660	0.4080
 430	0.3855	0.0126	0.3590	0.4030
 435	0.3793	0.0128	0.3510	0.3970
 440	0.3727	0.0128	0.3440	0.3900
 445	0.3648	0.0130	0.3360	0.3820
 450	0.3559	0.0132	0.3270	0.3740
 455	0.3440	0.0133	0.3160	0.3620
 460	0.3299	0.0131	0.3030	0.3480
 465	0.3151	0.0128	0.2880	0.3330
 470	0.3016	0.0125	0.2740	0.3190
 475	0.2909	0.0123	0.2630	0.3090
 480	0.2810	0.0128	0.2510	0.2990
 485	0.2714	0.0126	0.2410	0.2890
 490	0.2657	0.0125	0.2350	0.2830
 495	0.2601	0.0126	0.2290	0.2770
 500	0.2560	0.0128	0.2240	0.2730
 505	0.2493	0.0129	0.2190	0.2670
 510	0.2391	0.0137	0.2130	0.2590
 515	0.2225	0.0147	0.1990	0.2440
 520	0.2007	0.0147	0.1770	0.2220
 525	0.1795	0.0127	0.1590	0.1980
 530	0.1633	0.0107	0.1480	0.1800
 535	0.1519	0.0092	0.1380	0.1670
 540	0.1437	0.0085	0.1290	0.1580
 545	0.1377	0.0084	0.1220	0.1520
 550	0.1327	0.0082	0.1170	0.1460
 555	0.1284	0.0082	0.1130	0.1420
 560	0.1247	0.0085	0.1090	0.1390
 565	0.1212	0.0085	0.1060	0.1360
 570	0.1179	0.0087	0.1030	0.1320
 575	0.1147	0.0088	0.1000	0.1290
 580	0.1110	0.0089	0.0970	0.1250
 585	0.1065	0.0089	0.0930	0.1210
 590	0.1023	0.0088	0.0890	0.1160
 595	0.0972	0.0087	0.0840	0.1110
 600	0.0925	0.0088	0.0790	0.1070
 605	0.0877	0.0086	0.0750	0.1020
 610	0.0830	0.0087	0.0700	0.0980
 615	0.0783	0.0086	0.0660	0.0930
 620	0.0734	0.0084	0.0610	0.0880
 625	0.0688	0.0084	0.0560	0.0840
 630	0.0640	0.0082	0.0520	0.0780
 635	0.0595	0.0078	0.0480	0.0740
 640	0.0548	0.0074	0.0440	0.0680
 645	0.0505	0.0072	0.0400	0.0640
 650	0.0465	0.0067	0.0370	0.0590
 655	0.0415	0.0060	0.0330	0.0530
 660	0.0389	0.0057	0.0310	0.0500
 665	0.0357	0.0055	0.0280	0.0470
 670	0.0303	0.0049	0.0240	0.0400
 675	0.0256	0.0041	0.0200	0.0340
 680	0.0213	0.0036	0.0170	0.0290
 685	0.0175	0.0032	0.0130	0.0240
 690	0.0138	0.0025	0.0110	0.0190
 695	0.0117	0.0023	0.0090	0.0160
 700	0.0106	0.0021	0.0080	0.0150
 705	0.0095	0.0015	0.0080	0.0130
 710	0.0086	0.0015	0.0070	0.0120
 715	0.0077	0.0012	0.0060	0.0100
 720	0.0068	0.0010	0.0050	0.0090
 725	0.0069	0.0009	0.0060	0.0090
 730	0.0065	0.0008	0.0050	0.0080
 735	0.0057	0.0007	0.0050	0.0070
 740	0.0051	0.0008	0.0030	0.0060
 745	0.0050	0.0005	0.0040	0.0060
 750	0.0043	0.0005	0.0040	0.0050
 755	0.0039	0.0005	0.0030	0.0050
 760	0.0034	0.0010	0.0020	0.0060
 765	0.0023	0.0005	0.0020	0.0030
 770	0.0012	0.0004	0.0010	0.0020
 775	0.0014	0.0005	0.0010	0.0020
 780	0.0011	0.0003	0.0010	0.0020
 785	0.0009	0.0005	0.0000	0.0020
 790	0.0001	0.0004	0.0000	0.0010
 795	0.0000	0.0000	0.0000	0.0000
 800	0.0000	0.0000	0.0000	0.0000
